time,signal
0.0,13.682941969615793
0.0001,13.783865065433902
0.0002,13.869595327420505
0.00030000000000000003,13.939238936135046
0.0004,13.992039587334357
0.0005,14.027387192339468
0.0006000000000000001,14.044825327610994
0.0007,14.044057333399223
0.0008,14.024950973127494
0.0009000000000000001,13.987541578334296
0.001,13.93203361841702
0.0011,13.858800649943463
0.0012000000000000001,13.768383616761497
0.0013000000000000002,13.661487489360127
0.0014,13.538976249719095
0.0015,13.401866246018061
0.0016,13.251317959839584
0.0017000000000000001,13.088626246664514
0.0018000000000000002,12.915209128291938
0.0019,12.73259523308599
0.002,12.542409996428322
0.0021000000000000003,12.346360749214327
0.0022,12.146220836458197
0.0023,11.943812920865293
0.0024000000000000002,11.740991637403347
0.0025,11.539625774289602
0.0026000000000000003,11.341580163262757
0.0027,11.148697467404128
0.0028,10.96278005801513
0.0029000000000000002,10.785572173078767
0.003,10.618742548591161
0.0031000000000000003,10.463867710534224
0.0032,10.322416109492515
0.0033,10.195733271945192
0.0034000000000000002,10.085028132167968
0.0035,9.991360696568151
0.0036000000000000003,9.915631178284485
0.0037,9.858570724174776
0.0038,9.820733839073839
0.0039000000000000003,9.802492593639755
0.004,9.804032682443255
0.0041,9.825351378435087
0.004200000000000001,9.866257408802797
0.0043,9.926372755763865
0.0044,10.005136364304251
0.0045000000000000005,10.101809717528585
0.0046,10.21548421940734
0.0047,10.345090304547494
0.0048000000000000004,10.489408175427286
0.0049,10.647080049560348
0.005,10.816623782510682
0.0051,10.996447717769652
0.005200000000000001,11.184866601408602
0.0053,11.380118388290875
0.0054,11.580381757593052
0.0055000000000000005,11.783794148547035
0.0056,11.988470122742463
0.0057,12.192519857062866
0.0058000000000000005,12.394067571378173
0.0059,12.591269697459579
0.006,12.782332600168704
0.0061,12.965529668721404
0.006200000000000001,13.139217604629366
0.0063,13.301851743645821
0.0064,13.452000261527948
0.006500000000000001,13.588357127498885
0.0066,13.70975368474978
0.0067,13.815168753954008
0.0068000000000000005,13.903737173347011
0.006900000000000001,13.974756707222284
0.007,14.027693273467587
0.0071,14.062184459774251
0.007200000000000001,14.078041317156757
0.0073,14.07524843818443
0.0074,14.053962345625214
0.007500000000000001,14.014508234817033
0.0076,13.957375129813455
0.0077,13.883209529011657
0.0078000000000000005,13.792807630395371
0.0079,13.687106239568005
0.008,13.567172475287684
0.0081,13.43419239714701
0.0082,13.289458688290138
0.0083,13.134357532578276
0.008400000000000001,12.97035483037586
0.0085,12.798981900133054
0.0086,12.621820814208368
0.008700000000000001,12.440489516954276
0.0088,12.256626871045901
0.0089,12.071877774454892
0.009000000000000001,11.887878485462993
0.0091,11.706242286791943
0.0092,11.528545612432705
0.009300000000000001,11.356314752231228
0.0094,11.191013239882425
0.0095,11.034030019856445
0.009600000000000001,10.886668478091817
0.0097,10.750136410198856
0.0098,10.625536989581594
0.0099,10.513860786460295
0.01,10.415978877404628
0.010100000000000001,10.332637073806064
0.0102,10.264451286852427
0.0103,10.211904036129651
0.010400000000000001,10.175342099064688
0.0105,10.154975289122417
0.0106,10.150876342046358
0.010700000000000001,10.162981881540158
0.0108,10.191094428660055
0.0109,10.234885412848385
0.011000000000000001,10.293899136989856
0.0111,10.367557644106581
0.0112,10.455166429302837
0.011300000000000001,10.555920937291553
0.0114,10.668913783237677
0.0115,10.793142632685246
0.011600000000000001,10.927518674935316
0.0117,11.07087562334572
0.0118,11.221979175562963
0.0119,11.379536866601693
0.012,11.542208247890096
0.012100000000000001,11.708615325833751
0.0122,11.87735319405436
0.0123,12.047000794177595
0.012400000000000001,12.216131740826816
0.0125,12.383325147286733
0.0126,12.547176389101839
0.012700000000000001,12.70630774364736
0.0128,12.85937884444527
0.0129,13.005096889694185
0.013000000000000001,13.142226545149905
0.0131,13.269599482154076
0.0132,13.38612349229099
0.013300000000000001,13.490791120896063
0.0134,13.582687762489616
0.0135,13.660999162218317
0.013600000000000001,13.725018268610764
0.0137,13.774151384452912
0.013800000000000002,13.807923564423993
0.013900000000000001,13.825983210364972
0.014,13.8281058177368
0.014100000000000001,13.814196830018528
0.0142,13.784293561543118
0.0143,13.738566153610593
0.014400000000000001,13.677317533684542
0.0145,13.600982353087332
0.0146,13.510124884868892
0.014700000000000001,13.405435870426858
0.0148,13.287728310981686
0.0149,13.157932208123965
0.015000000000000001,13.017088266302496
0.0151,12.86634057924606
0.0152,12.70692833182984
0.015300000000000001,12.5401765587167
0.0154,12.367486011117679
0.0155,12.19032219310843
0.015600000000000001,12.010203638981784
0.015700000000000002,11.828689512975314
0.0158,11.647366622245807
0.0159,11.467835943023944
0.016,11.291698768325398
0.0161,11.120542593272196
0.0162,10.955926860848125
0.016300000000000002,10.799368696636732
0.0164,10.652328765641444
0.0165,10.516197387547393
0.0166,10.39228104864887
0.0167,10.281789449046558
0.016800000000000002,10.18582322254401
0.016900000000000002,10.105362463891183
0.017,10.041256193603912
0.0171,9.994212884523993
0.0172,9.964792166588683
0.0173,9.953397816990627
0.017400000000000002,9.960272132090655
0.0175,9.985491765182967
0.0176,10.028965100613714
0.0177,10.090431219950682
0.0178,10.169460500045869
0.0179,10.265456866094354
0.018000000000000002,10.37766170536046
0.0181,10.505159429317569
0.0182,10.64688465374606
0.0183,10.801630948078001
0.0184,10.968061087197112
0.018500000000000003,11.144718721231209
0.018600000000000002,11.33004136184311
0.0187,11.522374567364478
0.0188,11.71998719404473
0.0189,11.921087566916878
0.019,12.123840411508537
0.019100000000000002,12.326384377031998
0.019200000000000002,12.526849972930618
0.0193,12.723377733880735
0.0194,12.914136423660162
0.0195,13.09734108578688
0.0196,13.271270748561266
0.019700000000000002,13.434285594145564
0.0198,13.584843405583305
0.0199,13.721515112171831
0.02,13.842999262290762
0.0201,13.948135263571244
0.020200000000000003,14.035915243045162
0.020300000000000002,14.105494394496834
0.0204,14.156199696480622
0.0205,14.187536902173724
0.0206,14.19919572119025
0.0207,14.191053133458702
0.020800000000000003,14.163174796015022
0.020900000000000002,14.115814524829798
0.021,14.049411855307076
0.0211,13.964587706595031
0.0212,13.862138196066747
0.0213,13.743026670998377
0.021400000000000002,13.608374044333482
0.021500000000000002,13.459447540230654
0.0216,13.297647972613019
0.0217,13.124495695959311
0.0218,12.94161538190056
0.0219,12.750719787644481
0.022000000000000002,12.55359269269331
0.0221,12.352071188632907
0.0222,12.14802751285981
0.0223,11.943350620919455
0.0224,11.73992769362269
0.022500000000000003,11.539625774289599
0.022600000000000002,11.344273728372091
0.0227,11.155644712388964
0.0228,10.975439331661363
0.0229,10.805269656876865
0.023,10.64664425818149
0.023100000000000002,10.500954402463362
0.023200000000000002,10.369461544936728
0.0233,10.25328623026135
0.0234,10.15339850145909
0.0235,10.070609897042742
0.0236,10.005567098289958
0.023700000000000002,9.958747269716076
0.0238,9.930455116765987
0.0239,9.92082166579494
0.024,9.92980475277432
0.0241,9.957191189064496
0.024200000000000003,10.002600555254276
0.024300000000000002,10.065490557672417
0.0244,10.145163866909899
0.0245,10.240776343712547
0.0246,10.351346545050681
0.0247,10.475766392160907
0.024800000000000003,10.612812872977685
0.024900000000000002,10.7611606436949
0.025,10.919395388263721
0.0251,11.0860277904584
0.0252,11.259507970720966
0.0253,11.438240239296277
0.025400000000000002,11.620598018139406
0.025500000000000002,11.804938786641982
0.0256,11.989618910291615
0.0257,12.173008216836351
0.0258,12.353504191251934
0.025900000000000003,12.529545668663289
0.026000000000000002,12.699625913208317
0.0261,12.862304980495772
0.0262,13.01622127164172
0.0263,13.160102197710522
0.0264,13.292773884575631
0.026500000000000003,13.413169859598145
0.026600000000000002,13.520338672944446
0.0267,13.613450417687892
0.0268,13.691802123928467
0.0269,13.75482201289974
0.027,13.802072607304554
0.027100000000000003,13.833252703837422
0.027200000000000002,13.848198222933343
0.0273,13.846881959167424
0.0274,13.829412263370358
0.0275,13.796030694390923
0.027600000000000003,13.747108684512675
0.027700000000000002,13.68314326781783
0.027800000000000002,13.604751925300391
0.0279,13.512666604289237
0.028,13.407726972788119
0.0281,13.290872971720475
0.028200000000000003,13.163136729838914
0.028300000000000002,13.025633907283522
0.0284,12.87955453451651
0.0285,12.726153413691886
0.0286,12.566740149506614
0.0287,12.402668876292973
0.028800000000000003,12.235327747613995
0.028900000000000002,12.066128253976647
0.029,11.896494433532395
0.0291,11.727852039840622
0.0292,11.561617729961618
0.029300000000000003,11.399188335353141
0.029400000000000003,11.24193027728312
0.029500000000000002,11.091169187750104
0.0296,10.94817979621753
0.0297,10.814176141805355
0.0298,10.690302169918153
0.029900000000000003,10.57762277159082
0.030000000000000002,10.477115323059174
0.030100000000000002,10.389661782166026
0.0302,10.316041397139067
0.0303,10.256924081967998
0.0304,10.212864511003815
0.030500000000000003,10.184296983442753
0.030600000000000002,10.171531105981032
0.0307,10.17474833907765
0.0308,10.193999448889777
0.0309,10.22920290300329
0.031,10.280144243533938
0.031100000000000003,10.346476465995389
0.031200000000000002,10.427721426504458
0.0313,10.52327229341854
0.031400000000000004,10.632397052386507
0.0315,10.75424306606818
0.0316,10.887842681478157
0.0317,11.0321198690929
0.0318,11.185897868595017
0.031900000000000005,11.347907806498991
0.032,11.51679824100643
0.032100000000000004,11.69114557938483
0.0322,11.869465303073252
0.0323,12.050223925721344
0.0324,12.231851599601544
0.0325,12.412755276442713
0.032600000000000004,12.591332319861328
0.0327,12.765984458362867
0.0328,12.935131960495072
0.0329,13.09722790729812
0.033,13.250772431850184
0.033100000000000004,13.394326791572727
0.0332,13.526527136155172
0.0333,13.64609783257919
0.0334,13.751864208854359
0.0335,13.842764579782624
0.033600000000000005,13.917861421393582
0.0337,13.976351565660817
0.033800000000000004,14.017575293719997
0.0339,14.04102421404133
0.034,14.046347821815544
0.0341,14.033358647122778
0.0342,14.002035912175426
0.034300000000000004,13.952527631941601
0.0344,13.885151107627838
0.0345,13.800391778669667
0.0346,13.698900415870039
0.0347,13.581488655945162
0.034800000000000005,13.449122895778773
0.0349,13.302916582930893
0.035,13.14412095717006
0.0351,12.974114315768139
0.0352,12.79438989277967
0.035300000000000005,12.606542459295092
0.0354,12.412253767478877
0.035500000000000004,12.213276975865337
0.0356,12.011420206677164
0.0357,11.808529397664463
0.0358,11.606470620961302
0.0359,11.407112049567381
0.036000000000000004,11.212305758155905
0.0361,11.023869548877679
0.0362,10.8435689945992
0.0363,10.673099891527148
0.0364,10.514071310413922
0.036500000000000005,10.367989430518087
0.0366,10.23624233324846
0.0367,10.120085923021904
0.0368,10.020631131411495
0.0369,9.938832547279658
0.037000000000000005,9.875478600435642
0.0371,9.831183409604137
0.037200000000000004,9.806380387344978
0.0373,9.80131767524051
0.0374,9.81605546240521
0.0375,9.850465219421153
0.0376,9.90423085842254
0.037700000000000004,9.976851808509181
0.0378,10.06764797423121
0.0379,10.175766523823189
0.038,10.300190433437589
0.0381,10.439748694090794
0.038200000000000005,10.593128069629708
0.0383,10.758886276983509
0.038400000000000004,10.93546644448864
0.0385,11.121212690354698
0.0386,11.314386651538372
0.038700000000000005,11.513184783546375
0.0388,11.715756244109917
0.038900000000000004,11.920221168339046
0.039,12.12468913992827
0.0391,12.327277662263338
0.0392,12.526130434861319
0.0393,12.719435244422781
0.039400000000000004,12.905441285812604
0.0395,13.082475736417944
0.0396,13.248959417431164
0.0397,13.403421387522608
0.0398,13.544512327932464
0.039900000000000005,13.671016593027739
0.04,13.781862816636213
0.040100000000000004,13.876132981758873
0.0402,13.953069879347641
0.0403,14.012082900476567
0.040400000000000005,14.052752125191738
0.0405,14.074830690357508
0.040600000000000004,14.078245437686903
0.0407,14.06309586162207
0.0408,14.029651394597192
0.0409,13.978347084263527
0.041,13.909777733293714
0.041100000000000005,13.824690587236658
0.0412,13.723976669412384
0.0413,13.608660873886992
0.0414,13.479890938043873
0.0415,13.338925425084005
0.041600000000000005,13.187120853888475
0.0417,13.025918119023814
0.041800000000000004,12.856828347259283
0.0419,12.681418338807605
0.042,12.501295741636179
0.042100000000000005,12.318094105685132
0.0422,12.133457960751226
0.042300000000000004,11.949028057253287
0.0424,11.766426903199218
0.0425,11.587244723557287
0.0426,11.413025960036496
0.0427,11.245256420150763
0.042800000000000005,11.085351174537411
0.0429,10.934643290980057
0.043000000000000003,10.794373482611196
0.0431,10.665680736498924
0.0432,10.549593977409096
0.043300000000000005,10.447024810129465
0.0434,10.358761372482054
0.043500000000000004,10.285463320166516
0.0436,10.227657953984766
0.0437,10.185737489900559
0.0438,10.159957462874967
0.0439,10.150436246562995
0.044000000000000004,10.15715566281556
0.0441,10.17996264754595
0.0442,10.218571932916168
0.0443,10.27256969998661
0.0444,10.341418150947861
0.044500000000000005,10.424460945797893
0.0446,10.520929444811497
0.044700000000000004,10.629949695330208
0.0448,10.750550099229152
0.0449,10.881669695835601
0.045000000000000005,11.022166994016764
0.0451,11.170829286556952
0.045200000000000004,11.32638237973456
0.0453,11.487500671120706
0.0454,11.652817508985544
0.0455,11.820935767252095
0.0456,11.990438570623203
0.045700000000000005,12.159900105272785
0.0458,12.327896451295869
0.0459,12.493016373917644
0.046,12.653872011245287
0.0461,12.809109397095142
0.046200000000000005,12.957418758135203
0.0463,13.097544525259668
0.046400000000000004,13.22829499977174
0.0465,13.348551615622275
0.0466,13.457277739671047
0.046700000000000005,13.553526952745429
0.0468,13.636450755221915
0.046900000000000004,13.70530564200115
0.047,13.759459493148176
0.0471,13.798397228185875
0.0472,13.821725674122096
0.0473,13.829177599818836
0.047400000000000005,13.820614872329847
0.0475,13.796030694390925
0.0476,13.755550886387176
0.0477,13.699434180877098
0.0478,13.628071503146778
0.047900000000000005,13.541984217310636
0.048,13.441821324164803
0.048100000000000004,13.328355604320965
0.0482,13.202478708070771
0.0483,13.065195201909464
0.048400000000000006,12.91761559062238
0.0485,12.760948343234267
0.048600000000000004,12.596490960851261
0.0487,12.425620134387334
0.0488,12.249781050246677
0.0489,12.070475912108147
0.049,11.889251756893335
0.049100000000000005,11.70768765265791
0.0492,11.527381375380392
0.049300000000000004,11.349935670287966
0.0494,11.176944211308198
0.0495,11.00997737932288
0.049600000000000005,10.850567985989045
0.0497,10.700197074847122
0.049800000000000004,10.560279935139615
0.0499,10.432152466103622
0.05,10.317058030384205
0.050100000000000006,10.216134934566098
0.0502,10.130404672579497
0.050300000000000004,10.060761063864952
0.0504,10.007960412665645
0.0505,9.972612807660534
0.0506,9.955174672389006
0.0507,9.955942666600777
0.050800000000000005,9.975049026872508
0.0509,10.0124584216657
0.051000000000000004,10.06796638158298
0.0511,10.141199350056535
0.0512,10.231616383238505
0.051300000000000005,10.338512510639873
0.0514,10.461023750280901
0.051500000000000004,10.598133753981944
0.0516,10.748682040160416
0.0517,10.911373753335482
0.051800000000000006,11.084790871708066
0.0519,11.267404766914012
0.052000000000000005,11.457590003571674
0.0521,11.653639250785664
0.0522,11.853779163541805
0.0523,12.056187079134704
0.0524,12.259008362596646
0.052500000000000005,12.4603742257104
0.0526,12.65841983673724
0.052700000000000004,12.851302532595877
0.0528,13.037219941984858
0.0529,13.21442782692123
0.053000000000000005,13.381257451408846
0.0531,13.536132289465776
0.053200000000000004,13.677583890507481
0.0533,13.804266728054804
0.0534,13.914971867832033
0.053500000000000006,14.008639303431854
0.0536,14.084368821715511
0.053700000000000005,14.141429275825224
0.0538,14.179266160926161
0.0539,14.197507406360245
0.054,14.195967317556747
0.0541,14.174648621564913
0.054200000000000005,14.133742591197201
0.0543,14.073627244236135
0.054400000000000004,13.99486363569575
0.0545,13.898190282471418
0.0546,13.784515780592656
0.054700000000000006,13.654909695452506
0.0548,13.510591824572717
0.054900000000000004,13.352919950439647
0.055,13.183376217489318
0.0551,13.003552282230354
0.055200000000000006,12.815133398591394
0.0553,12.619881611709125
0.055400000000000005,12.419618242406939
0.0555,12.216205851452976
0.055600000000000004,12.011529877257535
0.0557,11.80748014293714
0.0558,11.605932428621822
0.055900000000000005,11.40873030254042
0.056,11.2176673998313
0.056100000000000004,11.034470331278591
0.0562,10.860782395370634
0.0563,10.698148256354182
0.056400000000000006,10.547999738472047
0.0565,10.411642872501115
0.056600000000000004,10.290246315250222
0.0567,10.184831246045995
0.0568,10.096262826652987
0.056900000000000006,10.025243292777711
0.057,9.972306726532413
0.057100000000000005,9.937815540225747
0.0572,9.921958682843243
0.057300000000000004,9.92475156181557
0.0574,9.946037654374782
0.0575,9.985491765182967
0.057600000000000005,10.042624870186547
0.0577,10.116790470988343
0.057800000000000004,10.207192369604627
0.0579,10.31289376043199
0.058,10.432827524712318
0.058100000000000006,10.565807602852992
0.0582,10.710541311709857
0.058300000000000005,10.865642467421727
0.0584,11.029645169624137
0.0585,11.201018099866939
0.058600000000000006,11.378179185791636
0.0587,11.55951048304572
0.058800000000000005,11.743373128954106
0.0589,11.928122225545097
0.059000000000000004,12.112121514537007
0.0591,12.293757713208054
0.0592,12.471454387567302
0.059300000000000005,12.643685247768772
0.0594,12.808986760117572
0.059500000000000004,12.96596998014356
0.0596,13.113331521908183
0.0597,13.24986358980114
0.059800000000000006,13.374463010418411
0.0599,13.486139213539705
0.060000000000000005,13.584021122595377
0.0601,13.667362926193931
0.060200000000000004,13.735548713147573
0.0603,13.788095963870347
0.0604,13.82465790093531
0.060500000000000005,13.845024710877585
0.0606,13.849123657953642
0.060700000000000004,13.837018118459842
0.0608,13.808905571339949
0.0609,13.765114587151615
0.061000000000000006,13.706100863010143
0.0611,13.632442355893417
0.061200000000000004,13.544833570697163
0.0613,13.44407906270845
0.0614,13.331086216762321
0.061500000000000006,13.206857367314745
0.0616,13.07248132506469
0.061700000000000005,12.929124376654277
0.0618,12.778020824437037
0.061900000000000004,12.6204631333983
0.062,12.457791752109912
0.0621,12.291384674166252
0.062200000000000005,12.122646805945635
0.0623,11.952999205822401
0.062400000000000004,11.783868259173186
0.0625,11.616674852713272
0.0626,11.452823610898157
0.0627,11.293692256352644
0.06280000000000001,11.140621155554724
0.0629,10.994903110305824
0.063,10.857773454850095
0.0631,10.730400517845926
0.0632,10.613876507709007
0.06330000000000001,10.50920887910393
0.0634,10.417312237510385
0.0635,10.339000837781686
0.0636,10.274981731389236
0.0637,10.225848615547086
0.06380000000000001,10.192076435576007
0.0639,10.174016789635028
0.064,10.1718941822632
0.0641,10.185803169981472
0.06420000000000001,10.215706438456882
0.06430000000000001,10.261433846389409
0.0644,10.322682466315454
0.0645,10.399017646912668
0.0646,10.489875115131106
0.06470000000000001,10.594564129573143
0.0648,10.712271689018305
0.0649,10.842067791876033
0.065,10.982911733697495
0.0651,11.133659420753943
0.06520000000000001,11.293071668170173
0.0653,11.459823441283293
0.0654,11.63251398888231
0.0655,11.80967780689157
0.0656,11.989796361018223
0.06570000000000001,12.171310487024698
0.0658,12.352633377754177
0.0659,12.532164056976049
